zero_ap_g2,,
Wavelength (nm),Abs,
800,0.0007298983983,
799,0.004045919515,
798,0.0005527841276,
797,0.0005515399971,
796,-0.0005129639176,
795,0.002311649267,
794,0.0001087087876,
793,0.000804089068,
792,0.003113671904,
791,0.005501898006,
790,0.002514867112,
789,0.002629311522,
788,-0.002693040995,
787,0.0009643384838,
786,0.00305180694,
785,0.001131057506,
784,0.001004682505,
783,0.003668974154,
782,0.001698043663,
781,-0.0005234093987,
780,0.003426573006,
779,0.0004895724123,
778,0.003015703522,
777,0.002630405361,
776,0.003682810348,
775,-0.0003695461201,
774,0.001308615552,
773,0.002088497626,
772,0.001046457444,
771,0.002306236187,
770,-0.0003713048645,
769,2.671514085E-5,
768,0.002690126654,
767,0.002060666913,
766,0.002132614143,
765,0.002301213564,
764,0.0006834092783,
763,0.002841719426,
762,0.001893330831,
761,0.001741470769,
760,0.0005092942738,
759,0.002949291607,
758,0.0007098034839,
757,0.002053540666,
756,0.0006019810098,
755,0.002354252851,
754,0.001566697378,
753,0.002026518341,
752,0.002795446664,
751,0.0005935824011,
750,0.001194648212,
749,-0.0002887913724,
748,0.0004233382933,
747,0.003155963263,
746,0.002052604221,
745,0.002939831,
744,0.003069168888,
743,0.001919174683,
742,0.002303399611,
741,0.002447880805,
740,0.002525984775,
739,0.0008624443435,
738,0.001378256828,
737,0.001802759478,
736,0.001104326337,
735,0.002347043483,
734,0.002244095784,
733,-0.0002239594178,
732,0.003657435533,
731,0.002387698274,
730,0.001018200535,
729,8.941933629E-5,
728,0.0002575640974,
727,0.002463344252,
726,0.002802090254,
725,0.00260490994,
724,0.002368281363,
723,6.632491568E-5,
722,0.00298604113,
721,0.002409172477,
720,0.002166354796,
719,0.001121636597,
718,0.001364312135,
717,0.001154935453,
716,0.001112449332,
715,0.002633478492,
714,0.00256993738,
713,0.001704878407,
712,0.00230241078,
711,0.0002480843104,
710,0.0006375213852,
709,0.0006661164807,
708,0.002547387499,
707,0.001581635908,
706,0.003352976637,
705,0.002014451427,
704,0.0003755347279,
703,0.002666554879,
702,0.002621707041,
701,0.002481750213,
700,0.001810557675,
699,0.002642958425,
698,0.001465856563,
697,0.004223601893,
696,0.004997794982,
695,0.003561641322,
694,0.001123738708,
693,0.003345672507,
692,0.003366620047,
691,0.003115731757,
690,0.003284817562,
689,0.002113182563,
688,0.002163649304,
687,0.00108857383,
686,0.002681609476,
685,0.002502317773,
684,0.002440643962,
683,0.001554071554,
682,0.001839568024,
681,0.003187097609,
680,0.001606863574,
679,0.003636082401,
678,0.00107066799,
677,0.001997469459,
676,0.0005793777527,
675,0.0002582893358,
674,-0.0002613178804,
673,0.0007454823353,
672,0.0007462083595,
671,2.894147656E-5,
670,0.0006422136212,
669,0.002324609319,
668,0.002921953099,
667,0.00236479356,
666,0.001827636152,
665,0.00254798634,
664,0.001659792033,
663,0.0005168101052,
662,0.002989716129,
661,0.002612826647,
660,0.002573296428,
659,0.001289506443,
658,0.002075180411,
657,0.0003807164321,
656,0.001468116301,
655,0.001703838934,
654,0.001512221759,
653,0.001745811198,
652,0.001195089542,
651,0.0007727101329,
650,4.93932348E-5,
649,0.001411965,
648,0.001456038794,
647,0.001626090612,
646,0.001879473566,
645,0.0003132814018,
644,0.001263751998,
643,0.002114561154,
642,0.001059431932,
641,0.001778846025,
640,0.001615619636,
639,0.002435958246,
638,0.00259587355,
637,0.001138480264,
636,0.001990552293,
635,8.815067122E-5,
634,0.00311406306,
633,1.302083729E-5,
632,0.001371037797,
631,0.003572315909,
630,0.002148248488,
629,0.001332113752,
628,0.00118434336,
627,0.001045782818,
626,0.001106739859,
625,0.002219871851,
624,0.000794727006,
623,0.001395681873,
622,0.002029847354,
621,0.00213347259,
620,0.001467155293,
619,0.0002974280505,
618,0.0006642757799,
617,0.0009491358651,
616,0.001998925814,
615,0.002095676726,
614,0.0017366627,
613,0.002300979337,
612,0.001473492826,
611,0.001135288039,
610,0.002341291634,
609,0.0006952061085,
608,0.0003849395725,
607,0.0003511815739,
606,0.0008709778194,
605,0.001450610464,
604,-0.0006181827048,
603,0.0008472452755,
602,0.001613644883,
601,0.001318534021,
600,0.001377815381,
599,0.0005156179541,
598,0.0004970619339,
597,0.001602940378,
596,0.0009327923181,
595,-0.0003644767567,
594,0.001093452564,
593,0.0007373142871,
592,0.001032497501,
591,0.001059172442,
590,0.001968760742,
589,0.001236363547,
588,0.0007473233854,
587,0.0002758508199,
586,0.001286936109,
585,0.001537912991,
584,0.002060901141,
583,0.002149367006,
582,0.001251134905,
581,0.001334944041,
580,0.001862964942,
579,0.0003576842428,
578,0.0007650602493,
577,0.001401265385,
576,0.001778092235,
575,0.001580544747,
574,0.001830833498,
573,0.0004992907052,
572,0.0009990523104,
571,0.0001818611199,
570,-0.0007620868855,
569,0.0005571644288,
568,0.002611628734,
567,0.0005320753553,
566,0.000643639476,
565,0.0008808343555,
564,0.00155596796,
563,0.0007331914385,
562,0.003292955458,
561,0.0004222241114,
560,-7.387227379E-5,
559,0.001222111867,
558,0.0007242976571,
557,0.001366727171,
556,0.0009722773102,
555,0.001224733773,
554,0.001170534641,
553,0.001477622776,
552,0.002397563308,
551,0.001267334679,
550,0.0002811608429,
549,0.001976197818,
548,0.0001238820259,
547,0.0009031420923,
546,-0.0007330411463,
545,0.0008102614083,
544,0.0008601878071,
543,0.001227770932,
542,0.0004898834159,
541,0.0003023757017,
540,0.001668159268,
539,-0.0003320417891,
538,-8.707166853E-5,
537,0.0003316222865,
536,-0.0004043576191,
535,-2.914662218E-5,
534,-0.0003778742393,
533,0.001992684556,
532,0.001875183778,
531,0.001531548565,
530,-0.001199451042,
529,-5.487478484E-5,
528,-0.0001101567104,
527,-0.0002708898101,
526,0.0007766777417,
525,0.001432352117,
524,0.00134748558,
523,0.000271680532,
522,0.001576387906,
521,0.001126775285,
520,0.0005472893245,
519,0.0006683201646,
518,0.0006451949594,
517,0.0001174864155,
516,0.0001026241007,
515,0.0006648720591,
514,0.0001244775776,
513,0.0002288922697,
512,0.001227225875,
511,0.001135910861,
510,-5.264886931E-5,
509,-0.0003929265076,
508,-0.0004788851365,
507,-0.001001253142,
506,-0.0002903952263,
505,-0.0005695835571,
504,2.66374791E-5,
503,0.001744771493,
502,0.00124308723,
501,0.001224785694,
500,0.001189093455,
499,0.00165059336,
498,0.0009491099045,
497,0.0005635665148,
496,0.0007873619907,
495,0.0001749985095,
494,-0.0002293408907,
493,0.0008386863046,
492,0.001788515248,
491,0.0009807610186,
490,-0.0009962428594,
489,0.0009699682705,
488,3.124548675E-5,
487,0.001182214823,
486,0.001038179966,
485,0.001875911723,
484,0.0008799265488,
483,0.001788697205,
482,0.001551967231,
481,0.001540069235,
480,0.000913725642,
479,0.001559968689,
478,0.0009103015182,
477,-2.93019275E-5,
476,-0.0003589417902,
475,0.001423547859,
474,0.000323643384,
473,6.648025737E-5,
472,0.0001153631965,
471,0.0006444690516,
470,0.001555864117,
469,0.002025244059,
468,0.001871440094,
467,0.000280228327,
466,0.001942731789,
465,-0.0001311702799,
464,0.001031407621,
463,-2.184720688E-5,
462,-0.001045672223,
461,-0.0006012252998,
460,0.001634950982,
459,0.001507623936,
458,0.0006623313529,
457,-5.068176688E-5,
456,0.0003377879038,
455,0.0006877909182,
454,0.0007686906611,
453,0.00164383743,
452,3.81058162E-5,
451,0.001058627502,
450,0.002344596898,
449,0.001287948689,
448,4.80470153E-5,
447,0.0003767524322,
446,-4.421098492E-5,
445,0.0006752942572,
444,0.001182915643,
443,-5.787716873E-5,
442,-0.001838510856,
441,-0.0002432082256,
440,0.001309316605,
439,-0.001010757172,
438,-2.774887071E-5,
437,0.001034106244,
436,0.002164325677,
435,0.002203610493,
434,0.0002164606267,
433,0.0003315186768,
432,-0.0009922655299,
431,0.00104845548,
430,-0.0002530392667,
429,0.0007621559198,
428,0.0002575640974,
427,-0.0002827897843,
426,-0.0001429187978,
425,-0.0004934167955,
424,-0.0003569760593,
423,0.001207367517,
422,0.0009111316176,
421,0.001232884941,
420,-2.692132284E-6,
419,0.001261830796,
418,0.000609990966,
417,0.004938514903,
416,0.001118989312,
415,0.002647828776,
414,0.001966238255,
413,0.002025764203,
412,0.0006193490117,
411,0.001495805103,
410,0.0007237531245,
409,0.001052399748,
408,0.001830209629,
407,-0.0006191649591,
406,-8.438005898E-5,
405,-0.002557598287,
404,-0.0008840373484,
403,0.0003383060102,
402,-0.001279830234,
401,-0.001664793352,
400,-0.0003202466469,
399,0.0004479287309,
398,0.001520638121,
397,0.002060172847,
396,0.001250979141,
395,0.0004533704487,
394,-0.0005126536707,
393,0.002356100595,
392,0.002281644382,
391,0.002884557471,
390,0.001384437317,
389,-0.002340709791,
388,-0.0008185190964,
387,-0.001313278452,
386,-0.002889028285,
385,-0.0005193760153,
384,0.0001941881637,
383,0.003889805172,
382,0.001817706041,
381,-0.001177869504,
380,0.002612071345,
379,-0.0003513892589,
378,0.0004217318201,
377,0.0003134627477,
376,0.0007089737919,
375,-0.0005773391458,
374,-0.001537799952,
373,0.001103807241,
372,0.002121532569,
371,-0.001504781772,
370,-0.001669744379,
369,0.004008740652,
368,0.0008232546388,
367,0.003660385497,
366,0.004249480087,
365,0.0001843472128,
364,-0.001092772116,
363,-0.005236255936,
362,-0.001750552212,
361,0.0003049660882,
360,0.00104453729,
359,0.003007857595,
358,0.002304909052,
357,0.004264668096,
356,-0.001129436307,
355,0.006649839226,
354,0.004365010187,
353,0.001947958255,
352,-0.005979004782,
351,-0.0001142973924,
350,0.005069392268,

